##TITLE= CuBr_TMG2phaz_Test
##JCAMP-DX= 4.24
##DATA TYPE= ULTRAVIOLET SPECTRUM
##ORIGIN= JASCO
##OWNER= 
##DATE= 21/06/28
##TIME= 08:02:07
##SPECTROMETER/DATA SYSTEM= 
##RESOLUTION= 
##DELTAX=  -0.50000000
##XUNITS= NANOMETERS
##YUNITS= ABSORBANCE
##XFACTOR= 1.00000
##YFACTOR= 1E-005
##FIRSTX=  1200.0000
##LASTX=   250.0000
##NPOINTS=     1901
##FIRSTY=      0.00359
##MAXY=     10.00000
##MINY=      0.00239
##XYDATA= (X++(Y..Y))
1200.0000 359 287 410 362 433 489 469 429 355 351 459 526 401 326 467 504 363
1191.5000 320 375 392 379 435 270 282 535 397 268 296 388 601 627 438 313 347
1183.0000 389 388 495 483 426 385 341 327 312 438 432 275 239 395 628 526 275
1174.5000 470 615 613 534 467 608 497 561 599 473 510 642 602 393 411 492 436
1166.0000 489 642 605 610 560 411 442 522 640 572 560 612 480 507 654 470 344
1157.5000 476 589 715 671 609 655 569 437 508 535 583 635 608 586 612 611 527
1149.0000 553 628 656 583 492 624 576 473 511 551 612 505 539 576 605 654 543
1140.5000 589 751 632 618 645 560 599 534 550 682 624 472 517 645 549 538 720
1132.0000 658 580 746 708 607 681 637 630 620 488 603 634 645 555 534 750 660
1123.5000 600 686 642 584 655 647 732 688 577 690 794 783 698 669 725 684 621
1115.0000 615 625 597 555 657 656 703 720 657 686 609 725 790 772 851 799 794
1106.5000 833 784 690 806 853 776 704 695 693 682 686 686 755 747 665 672 807
1098.0000 779 751 708 686 632 696 752 707 762 742 803 883 910 833 751 724 791
1089.5000 920 961 949 913 861 786 768 863 897 869 836 916 959 820 763 726 823
1081.0000 897 864 864 998 1054 985 848 684 858 984 821 750 816 823 832 946 905
1072.5000 830 971 979 877 892 876 768 897 1015 986 1027 981 1000 941 1026 1010
1064.5000 835 855 861 954 1019 987 916 966 1042 1123 1049 906 922 981 1100
1057.0000 1016 977 1100 1186 1183 1037 965 1071 1066 1013 1039 998 943 978
1050.0000 1109 1082 970 992 1119 1012 959 1054 956 937 1061 1022 935 1047 1173
1042.5000 1160 1117 1090 1131 1191 1105 1048 1216 1241 1101 1127 1174 1171
1036.0000 1202 1160 1192 1232 1127 991 1082 1208 1137 1218 1249 1197 1159 1227
1029.0000 1235 1263 1281 1079 1106 1304 1299 1283 1346 1272 1236 1312 1356
1022.5000 1310 1321 1301 1297 1335 1191 1126 1136 1196 1295 1246 1287 1424
1016.0000 1369 1207 1320 1451 1398 1429 1391 1223 1179 1364 1493 1421 1366
1009.5000 1417 1474 1471 1453 1426 1405 1357 1344 1433 1517 1515 1459 1544
1003.0000 1529 1448 1487 1456 1484 1425 1423 1506 1495 1458 1460 1566 1521
996.5000 1557 1622 1671 1592 1441 1382 1486 1658 1597 1555 1567 1548 1623 1592
989.5000 1525 1549 1553 1594 1570 1583 1641 1614 1640 1686 1638 1726 1676 1674
982.5000 1774 1768 1799 1785 1656 1619 1642 1694 1760 1625 1585 1616 1634 1675
975.5000 1721 1744 1808 1809 1692 1734 1803 1790 1757 1751 1755 1720 1743 1829
968.5000 1949 1857 1720 1756 1837 1876 1799 1835 1861 1846 1893 1946 2008 1997
961.5000 1867 1934 1977 1897 1899 1980 2055 2097 2075 1964 1960 2008 2018 2038
954.5000 2030 2010 1966 1987 2051 1983 1924 2028 2049 2003 2045 1934 1929 2032
947.5000 2062 2080 2171 2250 2289 2258 2174 2184 2229 2247 2160 2109 2173 2183
940.5000 2206 2191 2097 2144 2259 2381 2483 2319 2170 2290 2239 2295 2382 2218
933.5000 2290 2323 2166 2246 2299 2224 2304 2344 2349 2410 2368 2394 2415 2422
926.5000 2436 2461 2431 2342 2446 2526 2424 2402 2378 2336 2502 2434 2418 2529
919.5000 2564 2530 2476 2580 2641 2672 2643 2627 2566 2480 2599 2679 2670 2703
912.5000 2712 2715 2663 2664 2673 2673 2733 2726 2595 2620 2781 2658 2649 2870
905.5000 2850 2765 2764 2866 2939 2883 2816 2830 2936 3107 3018 3218 3190 3162
898.5000 3173 3180 3183 3166 3176 3162 3161 3170 3144 3126 3130 3134 3115 3151
891.5000 3125 3146 3160 3172 3149 3160 3145 3125 3154 3148 3156 3156 3172 3175
884.5000 3212 3224 3235 3233 3246 3254 3269 3274 3286 3271 3287 3272 3294 3275
877.5000 3313 3285 3326 3309 3355 3345 3369 3363 3373 3396 3375 3440 3382 3472
870.5000 3406 3501 3450 3500 3498 3489 3537 3479 3563 3503 3568 3534 3571 3582
863.5000 3581 3636 3589 3658 3610 3691 3641 3690 3672 3694 3706 3705 3730 3711
856.5000 3754 3731 3788 3747 3812 3775 3840 3813 3863 3855 3874 3884 3892 3915
849.5000 3905 3940 3924 3966 3955 3990 3976 4008 4003 4023 4034 4046 4056 4076
842.5000 4089 4104 4120 4139 4149 4164 4180 4196 4214 4229 4246 4257 4272 4284
835.5000 4297 4307 4317 4330 4342 4356 4367 4383 4398 4415 4429 4446 4457 4473
828.5000 4487 4499 4511 4524 4540 4553 4570 4583 4602 4622 4643 4659 4674 4691
821.5000 4704 4720 4738 4752 4763 4781 4800 4812 4832 4848 4860 4876 4895 4910
814.5000 4925 4944 4959 4975 4998 5018 5034 5049 5062 5081 5099 5120 5134 5149
807.5000 5163 5183 5204 5220 5233 5249 5269 5287 5309 5326 5347 5363 5387 5405
800.5000 5423 5442 5457 5475 5495 5516 5533 5551 5572 5591 5614 5634 5657 5677
793.5000 5694 5717 5734 5754 5774 5794 5808 5832 5855 5869 5890 5913 5935 5956
786.5000 5976 5990 6009 6036 6056 6075 6093 6114 6135 6162 6182 6199 6220 6244
779.5000 6265 6287 6312 6333 6360 6384 6408 6425 6450 6471 6489 6510 6531 6556
772.5000 6581 6609 6632 6657 6683 6707 6734 6757 6780 6805 6828 6854 6879 6906
765.5000 6928 6954 6983 7008 7035 7058 7084 7108 7133 7156 7178 7204 7228 7250
758.5000 7273 7298 7328 7355 7379 7402 7428 7459 7487 7511 7535 7563 7591 7624
751.5000 7650 7676 7704 7740 7771 7801 7832 7859 7888 7918 7949 7977 8005 8036
744.5000 8065 8099 8133 8163 8193 8224 8256 8287 8317 8343 8377 8411 8443 8472
737.5000 8505 8538 8574 8605 8637 8669 8706 8746 8779 8816 8849 8885 8919 8956
730.5000 8990 9021 9063 9100 9136 9173 9212 9250 9289 9329 9364 9403 9443 9482
723.5000 9521 9561 9601 9640 9682 9720 9760 9801 9843 9883 9927 9971 10013
717.0000 10059 10104 10151 10196 10240 10283 10326 10374 10423 10471 10518
711.5000 10567 10617 10668 10720 10771 10820 10870 10924 10980 11038 11091
706.0000 11147 11203 11262 11319 11377 11435 11493 11555 11619 11683 11748
700.5000 11815 11881 11948 12016 12084 12152 12219 12289 12356 12423 12491
695.0000 12559 12633 12707 12781 12855 12932 13016 13096 13179 13261 13346
689.5000 13431 13518 13607 13695 13787 13879 13978 14070 14169 14270 14375
684.0000 14482 14593 14705 14815 14932 15052 15172 15294 15416 15540 15669
678.5000 15803 15938 16070 16206 16343 16483 16628 16778 16926 17078 17237
673.0000 17398 17564 17735 17907 18082 18261 18443 18627 18818 19014 19210
667.5000 19412 19618 19832 20053 20278 20507 20740 20982 21227 21478 21736
662.0000 22000 22268 22544 22826 23115 23412 23717 24027 24347 24680 25021
656.5000 25369 25731 26099 26475 26863 27260 27665 28078 28504 28936 29385
651.0000 29843 30314 30794 31291 31801 32323 32862 33407 33971 34544 35132
645.5000 35730 36340 36961 37597 38251 38919 39609 40314 41034 41770 42523
640.0000 43294 44083 44895 45727 46584 47459 48353 49264 50197 51150 52125
634.5000 53116 54126 55157 56216 57297 58404 59534 60687 61863 63059 64283
629.0000 65527 66796 68097 69430 70790 72179 73595 75038 76508 78010 79534
623.5000 81083 82657 84261 85893 87552 89241 90952 92711 94475 96270 98080
618.0000 99918 101778 103664 105579 107523 109505 111519 113570 115637 117728
613.0000 119842 121983 124153 126337 128548 130792 133062 135355 137672 140003
608.0000 142356 144725 147108 149508 151937 154379 156841 159319 161816 164337
603.0000 166876 169426 171993 174588 177193 179813 182446 185088 187734 190380
598.0000 193028 195656 198285 200898 203505 206094 208679 211248 213818 216379
593.0000 218923 221468 223997 226509 229003 231494 233945 236383 238812 241206
588.0000 243574 245898 248226 250506 252803 255040 257226 259396 261525 263674
583.0000 265742 267826 269824 271807 273787 275707 277620 279482 281296 283029
578.0000 284787 286497 288195 289826 291391 292908 294445 295991 297401 298836
573.0000 300154 301429 302795 303986 305221 306295 307376 308434 309386 310453
568.0000 311318 312284 313068 313893 314731 315409 316171 316740 317363 317848
563.0000 318481 318956 319477 319981 320376 320913 321300 321771 322008 322331
558.0000 322572 322692 322942 322909 322983 322958 322961 322990 322905 322949
553.0000 322824 322798 322826 322720 322577 322365 322249 321970 321727 321454
548.0000 321080 320715 320374 319960 319366 318892 318321 317746 317196 316591
543.0000 315968 315290 314739 314032 313548 312887 312183 311533 310821 310136
538.0000 309381 308590 307708 306828 305989 305161 304230 303309 302371 301454
533.0000 300392 299454 298444 297336 296300 295268 294160 293104 292036 290975
528.0000 289843 288743 287581 286397 285257 284086 282936 281682 280434 279227
523.0000 277966 276696 275432 274150 272841 271574 270280 268963 267696 266390
518.0000 265075 263741 262439 261116 259813 258512 257198 255885 254561 253253
513.0000 251923 250607 249300 247971 246661 245369 244170 242846 241528 240224
508.0000 238911 237590 236294 234987 233701 232406 231111 229818 228545 227255
503.0000 225961 224698 223417 222159 220907 219654 218381 217122 215861 214605
498.0000 213375 212135 210900 209671 208461 207273 206085 204900 203722 202544
493.0000 201375 200206 199052 197890 196738 195588 194432 193298 192165 191050
488.0000 189932 188823 187720 186613 185510 184399 183294 182196 181104 180021
483.0000 178935 177857 176795 175735 174685 173637 172599 171570 170551 169545
478.0000 168541 167553 166570 165589 164612 163645 162689 161730 160782 159836
473.0000 158898 157977 157058 156146 155234 154340 153450 152566 151693 150818
468.0000 149957 149100 148257 147415 146582 145762 144949 144145 143339 142545
463.0000 141751 140963 140181 139401 138624 137855 137094 136331 135578 134829
458.0000 134084 133351 132618 131889 131169 130451 129729 129013 128300 127585
453.0000 126872 126164 125452 124745 124045 123342 122305 121588 120876 120164
448.0000 119461 118753 118058 117362 116670 115981 115296 114616 113938 113265
443.0000 112592 111914 111236 110558 109886 109218 108549 107884 107222 106566
438.0000 105915 105267 104622 103977 103341 102703 102067 101433 100803 100178
433.0000 99553 98935 98324 97716 97117 96520 95937 95356 94785 94224 93673
427.5000 93134 92602 92076 91558 91046 90542 90043 89546 89055 88572 88094
422.0000 87619 87156 86699 86249 85805 85370 84940 84524 84115 83714 83323
416.5000 82941 82573 82210 81858 81519 81189 80868 80558 80266 79981 79713
411.0000 79457 79216 78982 78756 78551 78357 78184 78028 77889 77773 77685
405.5000 77621 77579 77573 77598 77657 77762 77909 78099 78350 78658 79027
400.0000 79456 79958 80533 81195 81962 82827 83809 84929 86207 87657 89296
394.5000 91154 93236 95575 98182 101081 104286 107804 111656 115827 120314
389.5000 125072 130079 135250 140522 145750 150811 155505 159605 162873 165120
384.5000 166222 166162 165038 163039 160400 157367 154168 150980 147931 145103
379.5000 142557 140325 138427 136860 135607 134653 133968 133520 133279 133212
374.5000 133297 133519 133869 134338 134917 135622 136458 137425 138510 140387
369.5000 141663 142976 144283 145516 146627 147558 148248 148658 148761 148554
364.5000 148059 147308 146349 145240 144039 142813 141620 140506 139504 138630
359.5000 137918 137366 136990 136762 136682 136748 136937 137247 137661 138176
354.5000 138782 139493 140296 141184 142166 143242 144386 145614 146908 148253
349.5000 149624 151007 152396 153763 155133 156484 157821 159168 160554 161967
344.5000 163437 164993 166650 168418 170332 172390 174616 177013 179588 182335
339.5000 185264 188394 191722 195244 198967 202924 207098 211522 216207 221163
334.5000 226358 231847 237652 243793 250206 256941 264012 271488 279355 297208
329.5000 306321 315887 325828 336257 346936 358137 370259 382741 395167 408958
324.5000 423368 439100 455885 472621 489270 507819 533687 535576 528860 525467
319.5000 532505 532261 537220 537954 530848 526468 549536 566043 555946 625947
314.5000 577716 625867 675382 1000000 1000000 1000000 1000000 1000000 1000000
310.0000 1000000 1000000 682010 1000000 1000000 572718 581658 1000000 1000000
305.5000 1000000 1000000 1000000 1000000 1000000 1000000 1000000 1000000
301.5000 1000000 1000000 1000000 1000000 1000000 1000000 1000000 1000000
297.5000 1000000 1000000 604409 570370 597685 1000000 699405 1000000 651862
293.0000 648389 1000000 1000000 1000000 1000000 1000000 1000000 1000000
289.0000 1000000 1000000 618054 1000000 1000000 1000000 608924 603795 583864
284.5000 554586 553425 532159 559044 580144 629087 1000000 1000000 1000000
280.0000 1000000 1000000 1000000 1000000 1000000 635960 579940 557108 555062
275.5000 654674 1000000 1000000 1000000 1000000 1000000 1000000 1000000
271.5000 1000000 1000000 1000000 1000000 1000000 1000000 1000000 1000000
267.5000 1000000 1000000 1000000 1000000 1000000 1000000 1000000 1000000
263.5000 1000000 1000000 1000000 1000000 1000000 1000000 1000000 1000000
259.5000 1000000 1000000 1000000 1000000 1000000 1000000 1000000 1000000
255.5000 1000000 1000000 1000000 1000000 1000000 1000000 1000000 1000000
251.5000 1000000 1000000 1000000 1000000
##END= 
