##TITLE=Spectrum
##JCAMP-DX=5.00 $$ chemotion-converter-app (0.1.0)
##DATA TYPE=UV-VIS
##DATA CLASS=NTUPLES
##ORIGIN=
##OWNER=
##FIRSTX=800.0020752
##LASTX=199.9968872
##MINX=199.9968872
##MAXX=800.0020752
##MINY=-0.1065391973
##MAXY=10.0
##NPOINTS=1201
##FIRSTY=-0.003188651288
##XUNITS=NANOMETERS
##YUNITS=ABSORBANCE
##XYPOINTS=(XY..XY)
800.0020752, -0.003188651288
799.4827881, -0.003415338928
798.9981079, -0.003386264667
798.5134277, -0.003734104568
797.9938354, -0.003383953124
797.5088501, -0.003794052405
796.9891968, -0.003882162739
796.5040283, -0.003479439532
795.9840698, -0.003862099489
795.4986572, -0.003542041406
795.0131836, -0.003999136388
794.492981, -0.003003544873
794.0073242, -0.003379226895
793.4868774, -0.00342073245
793.0010986, -0.003273955779
792.5151367, -0.003645810299
791.9943848, -0.003838853911
791.5082397, -0.003351383144
790.9873047, -0.003277398413
790.5009155, -0.003483805107
790.0145264, -0.00393675454
789.4932861, -0.003559243865
789.0066528, -0.003828436602
788.4851685, -0.003389860503
787.9983521, -0.003881033743
787.5114136, -0.004032786004
786.989624, -0.003098189831
786.5026245, -0.003373370739
786.0153809, -0.00386225339
785.4932861, -0.003550308989
785.0059204, -0.003217019374
784.4836426, -0.003428385826
783.9960938, -0.003276730422
783.5083618, -0.003806882538
782.9857788, -0.003680668073
782.4978638, -0.003245694097
782.0098877, -0.004194125533
781.4870605, -0.003712699981
780.9989014, -0.003586612176
780.5106812, -0.003822175786
779.9875488, -0.003391042119
779.4990845, -0.003606842132
779.0105591, -0.003505477682
778.4869995, -0.003754224861
777.998291, -0.003745396854
777.5095825, -0.003527919529
776.9857178, -0.003604942234
776.4967651, -0.003543376457
776.0076904, -0.003635542234
775.4835815, -0.003670657752
774.9943237, -0.0034693731
774.5049438, -0.003518983955
774.0155029, -0.00361926714
773.4909668, -0.003696119646
773.0012817, -0.003619780531
772.5116577, -0.003668450285
771.9868164, -0.003650738858
771.4968872, -0.003407120239
771.006897, -0.003861535108
770.5167847, -0.003363866825
769.9915161, -0.003482366912
769.5012207, -0.003531257389
769.0108643, -0.003347787075
768.4854126, -0.003080095397
767.994812, -0.003432546509
767.5041504, -0.003036089474
767.0134277, -0.003514721524
766.4874878, -0.003535468364
765.996521, -0.003527406137
765.5055542, -0.003526892513
765.0144653, -0.003831258975
764.4881592, -0.003462131368
763.9968262, -0.003395305714
763.5054321, -0.003460025415
763.0139771, -0.003518778598
762.4872437, -0.00389540079
761.9956055, -0.003853735281
761.5038452, -0.003509175265
761.0119629, -0.003944552504
760.4848633, -0.004124899395
759.9928589, -0.00387749332
759.5007324, -0.00381765957
759.0085449, -0.003759152256
758.5162354, -0.003514105454
757.9886475, -0.003739391454
757.4960938, -0.003372086445
757.0036011, -0.003725583898
756.5109253, -0.003721888177
755.9829712, -0.003641292453
755.4900513, -0.003237472149
754.9971313, -0.003448828589
754.5040894, -0.003638982074
754.0110474, -0.003342546755
753.4825439, -0.003216197249
752.9892578, -0.003412822029
752.4958496, -0.003487810958
752.0023193, -0.003171331482
751.508728, -0.003637544578
751.0151367, -0.003279145341
750.486145, -0.00345242396
749.9922485, -0.003824125743
749.498291, -0.003406298347
749.0042725, -0.003480826272
748.5101318, -0.003925415687
748.0159912, -0.0036374419
747.4863892, -0.004155001137
746.9920044, -0.003597446019
746.4974976, -0.004008215852
746.0029297, -0.003807087895
745.5083618, -0.004179306794
745.0136108, -0.004223863594
744.4834595, -0.004051507916
743.9885254, -0.004272465594
743.4934692, -0.004411115311
742.9983521, -0.004412089474
742.5031738, -0.004380057566
742.0079956, -0.004496948794
741.5125732, -0.004685773049
741.0171509, -0.004370883573
740.4862061, -0.004475222901
739.9906616, -0.004630865995
739.4949341, -0.004517392255
738.9991455, -0.004363349173
738.5032349, -0.004309221171
738.0072021, -0.004364374094
737.5111694, -0.004294662736
737.0150146, -0.004257188179
736.4833374, -0.004024220165
735.9869995, -0.003916642629
735.4906006, -0.003823407227
734.9940796, -0.003840393387
734.4975586, -0.004028477706
734.0007935, -0.003502909793
733.5040283, -0.00339890155
733.0071411, -0.003497620113
732.5103149, -0.003335713875
732.0133057, -0.003527046647
731.5161743, -0.003269331297
730.9834595, -0.003556573531
730.4862061, -0.003520884085
729.9887695, -0.003741495777
729.491333, -0.003887806786
728.9937744, -0.003449496347
728.4961548, -0.003424687544
727.9984131, -0.003453913378
727.5006714, -0.003730306169
727.0027466, -0.003756996477
726.5047607, -0.003694938961
726.0066528, -0.003494127886
725.5084839, -0.003322510049
725.0103149, -0.00330123934
724.5120239, -0.003682208247
724.0136719, -0.003553133225
723.5151367, -0.003659517504
723.0166016, -0.00351903541
722.4822998, -0.003455248894
721.9835815, -0.003359808354
721.4846802, -0.003652740968
720.9857788, -0.003570694476
720.4867554, -0.003559089731
719.9876709, -0.003514824435
719.4884644, -0.003764182096
718.9892578, -0.003606431419
718.4898682, -0.00378358271
717.9904785, -0.003623271827
717.4909668, -0.003699250985
716.991333, -0.0037494516
716.4916382, -0.003602477722
715.9919434, -0.003543273779
715.4920654, -0.003339618444
714.9921265, -0.003356314963
714.4921265, -0.003508456284
713.9919434, -0.003497722792
713.4917603, -0.003398130881
712.9915161, -0.0035217572
712.4911499, -0.00342073245
711.9907227, -0.003335354151
711.4901733, -0.003429053584
710.989563, -0.003612387227
710.4888916, -0.003653767752
709.9880981, -0.003460949985
709.4871826, -0.003544609062
708.9863281, -0.003534954973
708.4852295, -0.003362068906
707.9841309, -0.003661930328
707.4829102, -0.003474920057
707.0174561, -0.003204120323
706.5161133, -0.00327868294
706.0146484, -0.003354157321
705.5131836, -0.003402189119
705.0115967, -0.003376863897
704.5098877, -0.003462593537
704.0080566, -0.003245950909
703.5061646, -0.003154627746
703.0042725, -0.003592260182
702.5022583, -0.003626711667
702.0001221, -0.003581118071
701.4979248, -0.003585636616
700.9956665, -0.003437734209
700.4932861, -0.003717165673
699.9909058, -0.003500958439
699.4883423, -0.003421246074
698.9857178, -0.003282433841
698.4830933, -0.003459409112
698.0162354, -0.003302112687
697.5133667, -0.003420989262
697.010437, -0.003384466749
696.5074463, -0.003249856411
696.0043335, -0.003401315771
695.5011597, -0.003504091175
694.9979858, -0.003457662882
694.4945679, -0.003208540147
693.9912109, -0.003292093519
693.4876709, -0.002902656794
692.9840698, -0.003426485462
692.5163574, -0.003416006686
692.0126343, -0.003672300372
691.5087891, -0.003293789225
691.0048828, -0.003543376457
690.5009766, -0.003418575041
689.9968872, -0.003372856881
689.4926758, -0.003629792016
688.9884644, -0.003409431782
688.4841919, -0.003662597854
688.0158081, -0.003343728371
687.5112915, -0.003208848415
687.0067749, -0.003283358645
686.5021362, -0.003388935933
685.9974365, -0.003456070554
685.4926758, -0.003523143707
684.987854, -0.00333545683
684.4828491, -0.003184128786
684.013855, -0.003618907649
683.508728, -0.003464853391
683.0036011, -0.003414568491
682.49823, -0.003327288199
681.9929199, -0.003386367345
681.4874878, -0.003542708931
680.9820557, -0.003454118967
680.5125122, -0.003393610474
680.0068359, -0.003152160672
679.5010376, -0.003401110182
678.9953003, -0.003066369565
678.4893188, -0.003143885639
677.9833374, -0.00334753003
677.5134888, -0.003288548207
677.0073242, -0.003442973364
676.5010986, -0.003131601028
675.994812, -0.003206844209
675.4884033, -0.003197953338
674.9819336, -0.003276524832
674.5115967, -0.003023442114
674.0050049, -0.003281919984
673.498291, -0.003298413474
672.9915161, -0.003125638701
672.4846191, -0.003352924483
672.013916, -0.002852152335
671.506897, -0.003419910558
670.9998169, -0.002897976898
670.4926147, -0.003399158362
669.9854126, -0.003113353858
669.5143433, -0.003112171544
669.006897, -0.003237574827
668.4994507, -0.003209567862
667.9919434, -0.00310836779
667.4842529, -0.003291220171
667.0128784, -0.003132629208
666.5050659, -0.002858170075
665.9971924, -0.003105746116
665.4891968, -0.003253247822
665.0175171, -0.003127180738
664.5093994, -0.003387497505
664.0012207, -0.003229352878
663.4929199, -0.003159921616
662.9845581, -0.003163108137
662.5125122, -0.003317012684
662.0040894, -0.003318810835
661.4954834, -0.003112839768
660.9868774, -0.003498698585
660.5144653, -0.003243638668
660.0057373, -0.003059532493
659.4968872, -0.002767073922
658.987915, -0.002860587323
658.5151978, -0.002974288771
658.0061646, -0.003111605998
657.4969482, -0.003110629506
656.9876709, -0.00296035409
656.5148315, -0.003361092648
656.0053711, -0.002933717566
655.4959106, -0.003190912539
654.9863281, -0.00329718017
654.5131226, -0.003304322017
654.003418, -0.003431981429
653.4935913, -0.00301423925
652.9837646, -0.00313884858
652.5103149, -0.003092946718
652.0003052, -0.002975060139
651.4901733, -0.003263678867
651.0164795, -0.003149539232
650.5062256, -0.003126975149
649.9959717, -0.003187829163
649.4855957, -0.002937317127
649.0115967, -0.003160178661
648.5010376, -0.003377634566
647.9904175, -0.003279145341
647.5161743, -0.003153599799
647.0054321, -0.003130675992
646.4946289, -0.003492227755
645.9837646, -0.00322441943
645.5092163, -0.003237009747
644.9981689, -0.003293378046
644.4870605, -0.003279042663
644.0123901, -0.00318942219
643.5010986, -0.0032702561
642.9897461, -0.003060457762
642.5148315, -0.003148357151
642.0032959, -0.003531565657
641.4916992, -0.003363199066
641.0166626, -0.00347533077
640.5049438, -0.003474920057
639.9931641, -0.003356006695
639.5178223, -0.003460590495
639.0058594, -0.003266145475
638.4938354, -0.0034029081
637.9818115, -0.003434087383
637.5061646, -0.00317354151
636.9939575, -0.003676612629
636.4816895, -0.003607355524
636.0057983, -0.003364945762
635.4933472, -0.003650636179
635.0174561, -0.003373165149
634.5048828, -0.003285002895
633.9921875, -0.003221541643
633.5160522, -0.003464750713
633.0032349, -0.003307918552
632.4903564, -0.003349842038
632.0140381, -0.003599089105
631.5009766, -0.00342073245
630.987854, -0.003346708138
630.5112915, -0.003459049622
629.9980469, -0.003369774669
629.4847412, -0.003382412018
629.0080566, -0.003553133225
628.4945679, -0.003556881798
628.0176392, -0.003516210942
627.5039673, -0.00357701024
626.9902954, -0.003108007833
626.5132446, -0.003497517435
625.9994507, -0.003315728158
625.4855347, -0.003380202921
625.0082397, -0.003407428507
624.4942017, -0.003409637371
624.0168457, -0.003347170539
623.5026245, -0.003611000953
622.9882813, -0.003315625479
622.5106812, -0.003377120709
621.9962769, -0.003389809281
621.4818115, -0.003368284786
621.0040283, -0.003432032885
620.4893799, -0.003411846003
620.0114136, -0.00334393396
619.4967041, -0.003356469097
618.9818115, -0.003592876252
618.5037231, -0.003514105454
617.9887695, -0.003436296014
617.510437, -0.003454889404
616.9953003, -0.003571875626
616.5170288, -0.003421913832
616.001709, -0.003681232687
615.4863281, -0.003584198887
615.0078125, -0.003520730184
614.4923096, -0.003594005946
614.0136108, -0.003407634096
613.4979858, -0.003531308845
612.9822998, -0.003560270881
612.5033569, -0.003587844549
611.9875488, -0.00340552791
611.5084839, -0.003682926763
610.9925537, -0.003562478814
610.5133667, -0.003676817985
609.9972534, -0.003466445487
609.5179443, -0.003347016405
609.001709, -0.003412308404
608.4854126, -0.003515902674
608.0059204, -0.003597497474
607.4894409, -0.003552979091
607.0097656, -0.003481493797
606.4931641, -0.003545276588
606.0134888, -0.003568589222
605.4967651, -0.00356627861
605.0168457, -0.003365407931
604.499939, -0.003353027161
603.9829712, -0.003371058963
603.5029907, -0.003460436361
602.9859009, -0.003387548961
602.5056763, -0.003395459848
601.9884644, -0.003330370644
601.5081787, -0.003328366904
600.9907227, -0.003440970089
600.5103149, -0.003341005417
599.9927979, -0.003450575052
599.5122681, -0.003522835672
598.9946289, -0.003474560333
598.513916, -0.003376658307
597.9960938, -0.003552054754
597.5152588, -0.003333812812
596.9974365, -0.003329548752
596.5164795, -0.003201550804
595.9984131, -0.003294097492
595.5172729, -0.003304219339
594.9991455, -0.003205559449
594.5179443, -0.003116283566
593.9995728, -0.003140595974
593.5183105, -0.003242405364
592.9998169, -0.003331963439
592.5184326, -0.003413798055
591.9998169, -0.003437785665
591.5181885, -0.003192814067
590.9994507, -0.003243844258
590.5177612, -0.003143680049
589.9989014, -0.00314928242
589.5170898, -0.003226988949
588.9981079, -0.003396230284
588.5161133, -0.003399569308
587.9970703, -0.003246773267
587.5148926, -0.003434446873
586.9956665, -0.00344168907
586.5134277, -0.003299749224
585.9940796, -0.003226680681
585.5117798, -0.003239321988
584.9922485, -0.003537162906
584.5097656, -0.003424430732
583.9900513, -0.003448880045
583.5075684, -0.003418677719
582.987793, -0.003384877695
582.5050659, -0.003460333683
581.9851685, -0.00354101439
581.5022583, -0.003468962153
580.9822998, -0.003556111595
580.4992676, -0.003465777962
580.0162354, -0.003463620786
579.4960327, -0.003505272325
579.0129395, -0.003397565801
578.4925537, -0.003530281829
578.0092773, -0.003694323124
577.4887085, -0.003481596708
577.0053711, -0.003508713096
576.4847412, -0.003547227941
576.0012817, -0.003520421917
575.5177002, -0.003447030904
574.9968262, -0.003438658779
574.5131836, -0.00344050792
573.9922485, -0.003514310811
573.5083618, -0.003610128071
572.9873047, -0.003585944651
572.5033569, -0.003566792002
571.9821167, -0.003243792802
571.4981079, -0.003516056808
571.0139771, -0.003388165263
570.4926147, -0.003371726722
570.0083008, -0.003445849521
569.4867554, -0.003419088665
569.0024414, -0.003496541642
568.5180664, -0.003464596579
567.9963379, -0.003435114631
567.5117798, -0.003642524593
566.9899292, -0.003550411668
566.5053101, -0.003566535423
565.9833374, -0.003408455756
565.4984741, -0.003433162812
565.0136719, -0.003581169527
564.4915771, -0.003362736665
564.0065918, -0.003551336005
563.4842529, -0.003570643254
562.9991455, -0.003477487946
562.5140991, -0.003477179678
561.9915771, -0.003591644112
561.5063477, -0.003459768603
560.9837036, -0.003483959008
560.4983521, -0.003693347564
560.0129395, -0.00365710468
559.4901123, -0.003541219747
559.0045776, -0.003531411523
558.4816284, -0.00339946663
557.9960327, -0.003462850349
557.5103149, -0.003407428507
556.9871216, -0.003489197697
556.5013428, -0.003371367231
556.0154419, -0.003566483967
555.4920654, -0.003347787075
555.0061035, -0.003630254185
554.4827271, -0.003455813741
553.996582, -0.003375322791
553.510376, -0.003342084354
552.9867554, -0.003372856881
552.5004883, -0.00329718017
552.0140991, -0.003211160889
551.4902954, -0.003423506161
551.0038452, -0.003369004
550.517334, -0.003250318812
549.9933472, -0.003343625693
549.5066528, -0.003474046942
548.9824829, -0.003525506007
548.4957886, -0.003484113142
548.0089722, -0.003323383396
547.4846191, -0.003334429348
546.9977417, -0.003361092648
546.5108032, -0.003371521365
545.9862671, -0.003401880851
545.4991455, -0.003392737126
545.0120239, -0.003675842658
544.4873047, -0.003502242267
544, -0.003500393359
543.5127563, -0.003435730934
542.987854, -0.003711262718
542.5004272, -0.00359975663
542.0129395, -0.003415955463
541.487854, -0.003367462894
541.0003052, -0.003202013439
540.5126343, -0.00329795084
539.9873657, -0.003297231626
539.4996338, -0.003366897814
539.0117798, -0.003551952075
538.4863892, -0.003649044549
537.9984131, -0.003683645511
537.510498, -0.003411383834
536.9848633, -0.003376761219
536.4967041, -0.0034693731
536.0085449, -0.003521038219
535.4827881, -0.003605301725
534.9945068, -0.003833568189
534.5061646, -0.003661160357
534.0177612, -0.003362736665
533.4917603, -0.003172102384
533.0032349, -0.003162696958
532.5146484, -0.00328890793
531.9885254, -0.003321636701
531.4998779, -0.003527560038
531.0111084, -0.003605301725
530.4847412, -0.003862612648
529.9959106, -0.003678152571
529.506958, -0.003426742274
529.0180664, -0.00318089081
528.4915161, -0.003178578103
528.0024414, -0.003285105573
527.5132446, -0.003424328053
526.9865112, -0.003495360492
526.4973145, -0.003353335429
526.0079956, -0.003303859616
525.5186768, -0.003349687904
524.9916382, -0.00338549423
524.5022583, -0.003348711645
524.0126953, -0.003415698651
523.4854736, -0.003451191355
522.9959717, -0.003421348752
522.5062256, -0.003463877598
522.0166016, -0.003485140391
521.4891357, -0.003492997959
520.9993286, -0.003445644164
520.5094604, -0.003669374157
519.9818115, -0.003473687219
519.4918823, -0.003328058636
519.0018311, -0.003383541945
518.5117188, -0.003342598211
517.9838867, -0.003398644738
517.4937134, -0.003410716075
517.003418, -0.003371521365
516.5130615, -0.003476614831
515.9851074, -0.003387548961
515.4946289, -0.003205507994
515.0042114, -0.003292607376
514.5136719, -0.003322458593
513.9853516, -0.00336843892
513.494751, -0.003488273127
513.0040283, -0.003336022142
512.5133667, -0.003386675613
511.9848328, -0.003358010435
511.4939575, -0.003328521037
511.0031128, -0.003347940976
510.512146, -0.003447082359
509.9833984, -0.003400391201
509.4923096, -0.003490584204
509.0012512, -0.003398182336
508.5100708, -0.003362582531
508.0188904, -0.003349893261
507.4898682, -0.003407890908
506.9985046, -0.003438658779
506.5071411, -0.003468037816
506.0157166, -0.003412256949
505.4864807, -0.003366897814
504.9949341, -0.003578704782
504.5033569, -0.003544249572
504.0117798, -0.003489403054
503.4822388, -0.003749759635
502.9904785, -0.003723273985
502.4987488, -0.003879032563
502.006897, -0.003924235702
501.5150146, -0.003684466938
500.9851685, -0.003719732398
500.4932251, -0.003892886452
500.0011597, -0.003915205598
499.5091248, -0.003786661895
499.0169373, -0.003886780702
498.486908, -0.003863946768
497.9946289, -0.003709979355
497.5024109, -0.003743086942
497.0100403, -0.003724813927
496.5176086, -0.003646734403
495.9872437, -0.003717268351
495.4947815, -0.003865434788
495.0021973, -0.003906791564
494.5096436, -0.00383567228
494.0169678, -0.003805291606
493.4863281, -0.00404063426
492.9936218, -0.003918079194
492.5007935, -0.003807909088
492.0079346, -0.00354517391
491.5149841, -0.003511024173
490.9841614, -0.003598626936
490.4911499, -0.003747244598
489.9980164, -0.004005446099
489.5049438, -0.003949580248
489.0117493, -0.003974974621
488.5185547, -0.003736619605
487.9873352, -0.003630100284
487.4940796, -0.003674456617
487.0006409, -0.003650995437
486.5072021, -0.003870873945
486.0137634, -0.004005907569
485.4822998, -0.003913769033
484.9887085, -0.003643191885
484.4951477, -0.003399877576
484.0014648, -0.003227759851
483.5077209, -0.003343676915
483.0140076, -0.003427666845
482.4822083, -0.003424841678
481.9882813, -0.003444462782
481.4943848, -0.003369158134
481.0003662, -0.003396898042
480.5064087, -0.003418985987
480.0123291, -0.003439120948
479.518219, -0.003512924304
478.9860229, -0.003274726449
478.4918213, -0.003504810156
477.9975586, -0.003441381035
477.5032654, -0.003289370332
477.0089111, -0.003448263742
476.5145264, -0.003288239939
475.9820251, -0.003371572588
475.4874573, -0.00343958335
474.9929504, -0.003454375779
474.4983215, -0.003385648131
474.0036621, -0.003287828993
473.5089722, -0.003427769523
473.0142212, -0.003404089715
472.4813538, -0.003468191717
471.9865723, -0.003410510486
471.4916382, -0.003455146216
470.9966431, -0.003442151472
470.501709, -0.003398593282
470.0066223, -0.003398644738
469.5115356, -0.003361657728
469.0164185, -0.003472608747
468.4831543, -0.003284540493
467.9878845, -0.00318407733
467.4926758, -0.00323433755
466.9972839, -0.003381178947
466.5019226, -0.003372137668
466.0065002, -0.003297488438
465.5110168, -0.003247595392
465.0154724, -0.003228119574
464.48172, -0.00326152076
463.9861755, -0.003187623573
463.490448, -0.003183152294
462.994751, -0.003325130325
462.4989929, -0.003292915644
462.0031738, -0.003548203502
461.5073853, -0.003486526897
461.0114746, -0.003310538828
460.5154724, -0.003098343965
459.9812927, -0.003182638204
459.4852905, -0.003183049383
458.9891968, -0.00316398195
458.4930725, -0.003188497154
457.9969177, -0.003209156683
457.5006104, -0.003342649434
457.004425, -0.00324009289
456.5080566, -0.003308072686
456.0115967, -0.003304579062
455.5152588, -0.003260904225
455.0187378, -0.003196000587
454.4841003, -0.003265785752
453.9874573, -0.003220822196
453.4909363, -0.003138385946
452.9942627, -0.003166089067
452.4975281, -0.003292247653
452.0007935, -0.003220000071
451.5040283, -0.00324898283
451.0072021, -0.003319067648
450.5102844, -0.003272516886
450.0133362, -0.003292812966
449.5164185, -0.003299492411
448.9811401, -0.00330601749
448.4840088, -0.003308278276
447.986908, -0.003179863095
447.4897766, -0.003083179705
446.9925842, -0.00315509038
446.4953308, -0.003162748413
445.9980164, -0.003214861033
445.5006714, -0.003186132992
445.0032654, -0.00328746927
444.5058289, -0.003250062
444.0083618, -0.003314906033
443.5108337, -0.003321585245
443.0132751, -0.00327955652
442.515686, -0.003182741115
442.0180359, -0.003152366262
441.4820251, -0.003130161902
440.9841919, -0.003193533747
440.4864502, -0.00310713402
439.9886169, -0.003223597305
439.4907532, -0.003130573081
438.9927979, -0.003266659332
438.494812, -0.003181610489
437.9967957, -0.00321234297
437.4986572, -0.003123325761
437.0005798, -0.003225755645
436.5024109, -0.003135353327
436.0042419, -0.003265066305
435.506012, -0.003130521625
435.0076904, -0.00318854861
434.5093689, -0.003139979206
434.0110168, -0.003226475092
433.5125427, -0.003130367491
433.0140991, -0.003195537953
432.515625, -0.003078244627
432.0170593, -0.003086983692
431.5184631, -0.003125690157
430.9814453, -0.003074697684
430.4827881, -0.003102199407
429.9840088, -0.003190963995
429.48526, -0.003314546542
428.9864807, -0.003166449023
428.4876099, -0.003094283165
427.9887085, -0.003067757702
427.4897156, -0.003203966189
426.9907227, -0.003123788163
426.4916687, -0.003056704998
425.9926453, -0.003172359429
425.4934998, -0.003075365908
424.9943542, -0.002986577572
424.4951172, -0.003096030792
423.9958496, -0.003201550804
423.4965515, -0.003090427723
422.9972229, -0.00320730661
422.4978333, -0.002941893879
421.9984131, -0.002902348293
421.4989624, -0.003029200248
420.9994507, -0.003076342633
420.4998779, -0.002808277728
420.0002441, -0.003002465237
419.5006104, -0.002870308002
419.000946, -0.00296035409
418.5011902, -0.002931197872
418.0014038, -0.002872056561
417.5016785, -0.003026064252
417.00177, -0.002918136073
416.5019226, -0.003009303473
416.0019531, -0.002887331182
415.5019836, -0.002865422051
415.0019226, -0.002980253194
414.5018616, -0.002856112784
414.00177, -0.003136792453
413.5016174, -0.002954337979
413.0014648, -0.003012336791
412.5011902, -0.003149693599
412.000946, -0.00306888856
411.5006104, -0.002948835725
411.0002136, -0.002951098373
410.4998169, -0.002988428576
409.9994202, -0.003092484083
409.4989319, -0.003017889569
408.9983826, -0.003005344421
408.4978333, -0.002991050947
407.9971924, -0.003077165224
407.4965515, -0.003097316017
406.9958801, -0.002970175352
406.4951477, -0.0031034844
405.9943542, -0.002883422654
405.4935608, -0.002936288714
404.9927063, -0.003040767973
404.4917603, -0.002961896593
403.9908447, -0.002759974683
403.4898682, -0.002828389639
402.9888306, -0.002996192547
402.487793, -0.00282165152
401.9866943, -0.002980767516
401.4855347, -0.003041796153
400.984375, -0.003063542303
400.4831238, -0.002870925004
399.9818726, -0.002824017545
399.519104, -0.002729364438
399.0177612, -0.002875348087
398.5163879, -0.0027806547
398.0149231, -0.002765684854
397.5134583, -0.002902913839
397.0119629, -0.003037014976
396.5104065, -0.002920913044
396.0088196, -0.002701273188
395.5071716, -0.002566090552
395.0055237, -0.002663815161
394.5038147, -0.002840322675
394.0020447, -0.002964621875
393.5002747, -0.002861256013
392.9984741, -0.002569744596
392.496582, -0.002542929724
391.9946594, -0.002666285029
391.4927368, -0.002572884085
390.9907532, -0.002679097233
390.4887085, -0.002742946381
389.9866333, -0.002697620075
389.4845276, -0.002710740082
388.9823608, -0.002501906594
388.5187988, -0.002477661241
388.016571, -0.002543341601
387.5143127, -0.002489809878
387.0120239, -0.002592801116
386.5096741, -0.002631551586
386.0072937, -0.002662683139
385.5048828, -0.002502060961
385.0024109, -0.002228387631
384.4999084, -0.00248656678
383.9973755, -0.002468086313
383.4947815, -0.002427313477
382.9921875, -0.002477043541
382.489502, -0.002569538774
381.9868469, -0.002408264205
381.4841003, -0.002498560585
380.9813232, -0.002476683119
380.5171814, -0.002321502194
380.0143433, -0.002560738008
379.5114441, -0.002348794136
379.0085449, -0.001999121159
378.5055847, -0.00206337939
378.0025635, -0.002000048757
377.4995117, -0.002030658768
376.99646, -0.002204796765
376.4933472, -0.002183058998
375.9902039, -0.002240646165
375.4869995, -0.002234980464
374.9837646, -0.002107535489
374.5191956, -0.00196861173
374.0158997, -0.002114490839
373.5125427, -0.002010149183
373.0091553, -0.001935368637
372.5057373, -0.001877174131
372.0023193, -0.001789738773
371.4988098, -0.001797266304
370.9952698, -0.001901916694
370.4916992, -0.001670930535
369.9880676, -0.001589024672
369.484436, -0.001668506651
368.9807434, -0.001654065796
368.5157776, -0.00153166079
368.0120239, -0.001386618009
367.5082703, -0.0014977135
367.0043945, -0.00150994095
366.5005493, -0.001376812579
365.9966431, -0.001304245554
365.4927063, -0.001245605061
364.988678, -0.001263156766
364.4847107, -0.001431255718
363.9806824, -0.001154273166
363.5153198, -0.0007054406451
363.0112, -0.0006978424499
362.5070496, -0.0008498326642
362.0028381, -0.0006780452095
361.4986267, -0.0006804746808
360.9943542, -0.0006979458267
360.4900208, -0.0008094242658
359.9856873, -0.0008708621608
359.4812927, -0.0005511248019
359.0156555, -0.0002335321769
358.5112305, -0.0004113919858
358.0067139, -0.0005158080021
357.5021973, -0.0003589417902
356.9976501, -0.0002492103667
356.493042, -0.0003839262354
355.9884033, -0.0002669058449
355.4837341, -0.0002846005955
355.0178528, 1.625669211E-005
354.5131531, -0.0002130927751
354.0083618, -0.0001417801832
353.50354, -0.0001337580907
352.9986877, 5.765187962E-005
352.4938354, 7.437675231E-005
351.9888916, 0.0001216034143
351.4839172, 0.0001897856127
351.0177917, 0.0001906402176
350.5127563, 0.0002414796618
350.0076904, 0.0002205785713
349.502594, 0.0002238159796
348.997467, 0.0001275071118
348.4922791, 0.0001914689346
347.9871216, 0.0003855354735
347.481842, 0.0005054846406
347.0154724, 0.0005436866777
346.5101624, 0.000666764623
346.0047913, 0.0006009960198
345.4994507, 0.000829712546
344.9940186, 0.0008309315308
344.4886169, 0.0008820015937
343.9830933, 0.0009219229105
343.5164795, 0.0008807824925
343.0108948, 0.0008443404222
342.5053406, 0.001089482103
341.9997253, 0.001010131207
341.4940491, 0.001124595175
340.9883728, 0.0008142293664
340.482666, 0.001062623691
340.0158081, 0.001141932211
339.5100403, 0.001137597836
339.0042114, 0.001231509144
338.4983521, 0.00115052308
337.9924316, 0.001278342563
337.4865417, 0.001331698266
336.9805908, 0.001338916714
336.5134583, 0.001463467022
336.0074463, 0.00143245596
335.5013733, 0.001532587572
334.9953003, 0.001722706482
334.4891663, 0.001643967349
333.9829712, 0.001700486522
333.5157471, 0.001733465935
333.0095215, 0.00178274489
332.5032349, 0.001752464683
331.9969482, 0.001705995877
331.4906311, 0.001777104568
330.9842529, 0.001707451302
330.5168152, 0.001804111176
330.010376, 0.001995805185
329.5039063, 0.001835564733
328.9974365, 0.001872454071
328.4909058, 0.001873467932
327.9843445, 0.002099032048
327.5166931, 0.002271131612
327.0101013, 0.002325858455
326.5034485, 0.002177229384
325.9967346, 0.002493908396
325.4900208, 0.002883463167
324.9832458, 0.002947024303
324.5154114, 0.00312191085
324.008606, 0.003153798869
323.50177, 0.003471660661
322.994873, 0.00367059256
322.487915, 0.003711502301
321.9809875, 0.003867526306
321.5130005, 0.004248486832
321.0059814, 0.004643229768
320.4989319, 0.005153705832
319.9917908, 0.0054905992
319.4847412, 0.00580136152
319.016571, 0.006112582982
318.5093994, 0.006641533226
318.0021973, 0.007079633884
317.4949646, 0.007623568177
316.9876709, 0.008381788619
316.5194092, 0.009225332178
316.0120544, 0.01020411681
315.5046997, 0.01098642685
314.9973145, 0.01203420479
314.4898376, 0.01310428511
313.9823914, 0.01440121513
313.513916, 0.01597122848
313.0064087, 0.01745854132
312.4988403, 0.01940740459
311.9912415, 0.02140782773
311.4836121, 0.02375668101
311.0150452, 0.0267038662
310.5073242, 0.03018518537
309.9996338, 0.03351488337
309.4918823, 0.03701678291
308.9840698, 0.04119735211
308.5153503, 0.04603954777
308.0075073, 0.0512791574
307.4996338, 0.05782885104
306.9917603, 0.06427393854
306.4838257, 0.07164753228
306.0148926, 0.08147329092
305.5069275, 0.09276274592
304.9989014, 0.1044509336
304.4908447, 0.1172768623
303.9827576, 0.1330838799
303.5137329, 0.1481398791
303.0055847, 0.1643241346
302.4974365, 0.1854287833
301.9892273, 0.2066985816
301.480957, 0.2290900052
301.0117798, 0.2591492236
300.503479, 0.2916200161
299.9951782, 0.3254437447
299.4867859, 0.3596697748
299.0175476, 0.3950474262
298.5091248, 0.4316361845
298.0006714, 0.4657203257
297.492218, 0.5070624352
296.9837036, 0.5467748046
296.5142822, 0.5811832547
296.0057068, 0.6240991354
295.4971008, 0.6626558304
294.9884949, 0.6941907406
294.5189819, 0.7222471237
294.0102844, 0.7553694844
293.5015869, 0.784522295
292.9928284, 0.810562849
292.4840393, 0.839117229
292.0143738, 0.8626647592
291.5055542, 0.8841999173
290.9967041, 0.9167237878
290.4878235, 0.9476758838
290.0180664, 0.9728912115
289.5090942, 0.9972551465
289.0001221, 1.027054429
288.4911194, 1.052333355
287.9820862, 1.073374271
287.5121765, 1.091295719
287.0030823, 1.109132409
286.4939575, 1.124198794
285.9848022, 1.14147675
285.5148315, 1.153452158
285.0056152, 1.161810517
284.4963989, 1.168358564
283.9871216, 1.173761725
283.5169983, 1.176817775
283.0076904, 1.177826524
282.4983215, 1.175626397
281.9889526, 1.172260523
281.5187378, 1.169945598
281.0093079, 1.163354874
280.4998779, 1.156198144
279.990387, 1.150584698
279.4808655, 1.143834114
279.010498, 1.137252808
278.5009155, 1.130604267
277.991333, 1.122446775
277.48172, 1.114198923
277.011261, 1.106754422
276.5015869, 1.100079179
275.9918518, 1.08872366
275.4821167, 1.077398539
275.0115662, 1.067706585
274.50177, 1.058144927
273.9919434, 1.047532082
273.4821167, 1.036631942
273.0114746, 1.028828263
272.5015869, 1.022824526
271.9916077, 1.019265294
271.4816895, 1.017766595
271.0108948, 1.016748428
270.500885, 1.017241597
269.9908752, 1.012175083
269.480835, 0.9983438849
269.0099792, 0.9749986529
268.4998474, 0.9371640086
267.9897156, 0.9120396972
267.5187683, 0.8934172392
267.0085449, 0.8822928071
266.4983521, 0.8737316728
265.9880981, 0.8615172505
265.5170593, 0.8471707106
265.0067749, 0.8289407492
264.49646, 0.8139410019
263.986084, 0.8028941154
263.5149536, 0.7975020409
263.0045471, 0.7908385992
262.4941101, 0.7762858868
261.9836731, 0.757753551
261.5124512, 0.7444247007
261.0019226, 0.7312393785
260.491394, 0.7212957144
259.980835, 0.7119615674
259.509491, 0.6991769671
258.9988708, 0.6822434068
258.4882202, 0.6664183736
258.0168457, 0.6558554769
257.5061646, 0.6479306817
256.9954224, 0.6460940838
256.4846802, 0.6507328749
256.0131836, 0.6581510305
255.5023956, 0.6693739891
254.9915924, 0.6868237257
254.4807281, 0.710056901
254.0091858, 0.741116643
253.4982758, 0.7763924599
252.9873505, 0.8057129383
252.5157013, 0.8403543234
252.004715, 0.8852638602
251.4937134, 0.9228020906
250.9826965, 0.969299376
250.5109711, 0.9915238023
249.9998932, 0.9998793006
249.4888153, 0.9930061102
249.016983, 0.9790017605
248.5058289, 0.9630581141
247.9946594, 0.9524978399
247.4834595, 0.9458097219
247.0115662, 0.940202713
246.5003357, 0.9391567707
245.9890594, 0.9428217411
245.5170746, 0.9506696463
245.0057526, 0.9585655332
244.4944, 0.9673464298
243.9830322, 0.9770934582
243.5110016, 0.9808290005
242.999588, 0.986995697
242.4881439, 0.9896831512
242.0160065, 0.9878679514
241.5045319, 0.9810581803
240.9930267, 0.9709605575
240.4814606, 0.9559988976
240.0092773, 0.9419383407
239.4976807, 0.9214536548
238.9860687, 0.9023607969
238.5137634, 0.885941565
238.002121, 0.8705191016
237.4904327, 0.8529940248
237.0181122, 0.8381356597
236.5063782, 0.8184723854
235.9946289, 0.8072425127
235.4828644, 0.7890601754
235.0104065, 0.7776153684
234.4985809, 0.7527503371
233.9867401, 0.7462977767
233.514267, 0.7217655778
233.0023804, 0.7068348527
232.4904785, 0.6820586324
232.0178833, 0.670999527
231.5059357, 0.6623869538
230.993927, 0.6430615187
230.4819336, 0.6374522448
230.0092926, 0.6333919764
229.4972534, 0.6318008304
228.9851837, 0.6381305456
228.5124512, 0.632147789
228.0003357, 0.6638967395
227.488205, 0.6986324191
227.0154419, 0.746121645
226.5032501, 0.7996974587
225.9910431, 0.8802877665
225.518219, 1.000126004
225.0059357, 1.105933428
224.4936676, 1.245938182
223.981369, 1.329048157
223.5084686, 1.367934704
222.996109, 1.425062537
222.4837494, 1.504912257
222.0107727, 1.3090626
221.4983673, 1.366897583
220.9859161, 1.44792974
220.5128937, 1.096576691
220.000412, 1.037051797
219.487915, 1.151999235
219.0148163, 0.882412076
218.5022736, 0.9357013702
217.9897308, 0.7345673442
217.516571, 0.7438408732
217.0039368, 0.9891322255
216.4913177, 0.7121446133
216.0181122, 0.6429551244
215.5054474, 0.6838915944
214.9927368, 0.5348479152
214.519455, 0.6985273957
214.0067444, 0.485239327
213.4939575, 0.5249219537
212.9811859, 1.125231981
212.507843, 0.5328076482
211.9950409, 0.4937663972
211.4821777, 0.468526721
211.0087585, 0.8491161466
210.4958954, 0.3471393585
209.9829865, 0.0569954887
209.5095062, 0.2193793058
208.9965668, 0.3898021281
208.4836121, 0.06722667813
208.0100708, 0.1140412465
207.4970703, 0.08708554506
206.9840393, 0.6365976334
206.5104523, 0.1716916114
205.997406, 0.04706224427
205.4842987, 10
205.0106506, 0.09313773364
204.4975433, 0.03444950655
203.9843903, 0.2140390426
203.5106659, 0.001497259713
202.9974823, -0.1065391973
202.4842834, 0.3322774768
202.0105286, -0.01165535673
201.4972687, 0.1402873397
200.9840088, 0.07081260532
200.5102081, 0.1109475195
199.9968872, 0.1829676479
##END=$$ End of the data block
