##TITLE=*[Fe(DMEGqu)Cl2]
##JCAMP-DX=4.24  $$ Nicolet v. 500
##DATATYPE=INFRARED SPECTRUM
##ORIGIN=IAC
##OWNER=Nicolet
##DATE=117/08/16
##TIME=16:52:36
##DATA PROCESSING=
Ratio against background
%Transmittance->Absorbance
Subtraction or Addition
Truncated
ElementMultiply or ElementDivide
##XUNITS=1/CM
##YUNITS=TRANSMITTANCE
##FIRSTX=399,212341
##LASTX=3999,837646
##FIRSTY=0,753258
##MAXX=3999,837646
##MINX=399,212341
##MAXY=1,000000
##MINY=0,445957
##XFACTOR=1,000000
##YFACTOR=1,000000E-009
##NPOINTS=1868
##DELTAX=1,928562
##XYDATA=(X++(Y..Y))
399,212 753258112 751933952 739564736 744229760 742759104 741850944 
410,784 750666048 760210368 760431808 750358336 744780736 758599488 
422,355 751550144 736784896 729545088 730603712 727896640 719196096 
433,926 728869120 748795712 754383488 749437312 746083584 742234880 
445,498 736990336 733674624 733233920 739583488 742199232 742587456 
457,069 743355328 742289024 733917632 725839552 716930176 701741632 
468,640 683659968 683230720 707816704 735924096 752676672 757389696 
480,212 756947968 759164416 760611520 758673408 754371008 753767232 
491,783 756454400 757192384 754356736 753481216 753904512 753155072 
503,354 752596480 753278208 752423296 752834304 752437696 750706624 
514,926 748788608 747748416 747200448 746288320 744534208 741892096 
526,497 740560256 738329600 730250496 714538560 699890880 716502592 
538,069 746859840 755865856 754914368 754695296 755543808 755072704 
549,641 752746752 750385216 750913984 751737536 749917504 745863616 
561,212 744160320 744582144 744834304 740499136 734869376 731741184 
572,784 727699200 715404736 688267264 658268416 676185600 733168640 
584,355 760755904 761500544 757949440 756255360 754003392 747740736 
595,927 742425280 744279424 748079936 748137984 742139328 731736704 
607,498 717980672 706795904 713610176 734316352 747800896 752382208 
619,070 753408576 751863680 747317632 742662912 739278848 735691328 
630,641 726775488 710839232 687129152 651553792 626375872 657372416 
642,213 718627264 754252544 766752640 768974400 766170432 761868352 
653,784 758612992 755644288 750185088 740265792 728720768 722828416 
665,356 728434880 740256576 753129728 757283904 760474240 761871168 
676,927 760342848 757668608 756303424 755304704 753067008 748771520 
688,499 743706880 739501888 735585472 731008704 729063424 735376192 
700,070 748011264 758504384 762118912 761450880 761168448 762090432 
711,642 762351680 760536640 757931456 756705792 756781440 755816512 
723,214 753559104 750931648 749640576 749489664 747848960 744724224 
734,785 742027072 740227840 738160576 734050240 728521664 723497536 
746,357 719758272 714728576 707423424 699118912 690772608 681778112 
757,928 669602816 653446528 634276096 613531392 601870208 614757760 
769,500 641368576 648669504 641255040 632288448 605444160 561562816 
781,071 529762112 554412544 623519360 684294144 720860032 742660160 
792,643 756878976 762985472 760288064 750886720 736732032 715914368 
804,214 690943232 680783936 688970176 680940736 647850560 625028160 
815,786 639425600 668568960 682910400 678082304 659813760 639152576 
827,357 632434304 648635200 678391424 706214976 726458368 741168832 
838,929 753409856 762229312 766833664 768353600 769784320 771259840 
850,500 771209920 768905024 767132160 768651904 774210688 781569536 
862,072 788684160 794760000 800504640 805273344 808163008 808508864 
873,643 808724288 809716800 810453632 809156096 807005376 805152256 
885,215 804505216 803232192 800397120 796216832 791408000 785589248 
896,786 782610752 786551104 791625792 791235136 785176832 772659712 
908,358 763379200 775216320 797523904 807891456 808359168 805771584 
919,930 804399168 804097664 803725312 801582080 798907520 796917312 
931,501 796628800 795789248 793472896 789971648 787194368 784399040 
943,073 780132096 772904000 763793664 757263616 763114752 774009472 
954,644 777667840 775766784 772950464 769006656 763379456 755872064 
966,216 747611136 737434432 723925696 707408448 694271616 690276736 
977,787 693199488 695324992 710272192 746963584 779486208 796644032 
989,359 803477696 803870464 802358720 800772992 799207808 796398912 
1000,930 792424576 788469248 785519040 781961536 776743424 769588992 
1012,502 762449920 755144192 745199040 729959424 709915264 686044608 
1024,073 662064000 651151296 673451136 724946944 774819008 803687424 
1035,645 813304064 810443008 800305664 784436544 772547328 777649408 
1047,216 789878528 795747072 798600896 800584896 801268160 799737088 
1058,788 797534656 795108800 792114880 787079040 780255232 773831872 
1070,359 770976000 769687168 767522560 762439744 758740032 762452160 
1081,931 770760192 774950208 773568704 768741632 764173824 760182848 
1093,503 754448320 744991744 735694528 732225280 739976896 756225984 
1105,074 772284672 782270080 787416128 788224704 786029376 782227904 
1116,646 779628800 778140480 777579520 777545792 779074560 781063168 
1128,217 782182912 780472320 776519424 771187584 766468288 764990592 
1139,789 771334080 781590272 788879424 791695872 792511232 791752704 
1151,360 790748736 789204160 787312832 784466688 780823232 775917184 
1162,932 770601600 766020416 766753600 772047360 777573184 780729728 
1174,503 781929152 781000640 779055680 776414080 774177152 771098624 
1186,075 766775680 760561152 752914432 743220672 734505536 732809088 
1197,646 739920064 747510080 750448832 748010048 743142272 741696384 
1209,218 747909824 753990464 753978112 749566016 744584832 740483776 
1220,789 738433984 735935808 731076416 723872000 715555776 705673600 
1232,361 696075264 689626688 687766720 687826304 688156032 691570816 
1243,932 703240384 719491328 734868992 745150528 750022336 750955840 
1255,504 750325632 748078528 744511424 739383680 734041472 727783232 
1267,076 720362496 710846656 699927616 687760064 675536960 662483648 
1278,647 649890880 637159936 623304512 607200384 591513152 580759616 
1290,219 584098752 605923968 638562624 668476544 691578688 709347712 
1301,790 725126720 737587968 744840640 747271744 747024640 743276160 
1313,362 734349696 718529216 695176000 665518720 646220672 659466432 
1324,933 700366080 737694016 760274816 772910976 778891648 778633600 
1336,505 775183552 770094400 764851072 760379968 755410816 749288640 
1348,076 744043072 738577088 732820736 725800064 718261056 711029760 
1359,648 704235328 695641472 684483968 675390848 665867392 652738432 
1371,219 639353344 623486528 603837376 588118720 571815232 559548736 
1382,791 559493760 572214976 582215488 571549824 551867712 548672960 
1394,362 584070208 637003456 670101120 684032064 678835584 658890816 
1405,934 626095168 600080256 586996672 584444800 593785728 622953792 
1417,505 671388416 730359360 758056384 770714496 792246656 807097088 
1429,077 806982272 795863872 785206656 775009792 757869312 743029760 
1440,649 732871680 720323840 709783040 700459008 691049664 683141184 
1452,220 675368256 667209792 656876480 631946688 615637376 601389056 
1463,792 580764224 552446336 542676288 555640960 592766528 642918528 
1475,363 666206144 690963520 711952064 727274752 731268608 725805824 
1486,935 709991296 685030528 649707520 625951168 604718528 566912768 
1498,506 528080736 504277760 507976128 531035424 594181888 662535680 
1510,078 678926464 684643328 685300736 679925760 670131840 661505280 
1521,649 638459200 618650368 600998592 577912384 559037184 544917312 
1533,221 522497408 502418336 493679456 483480576 462195520 456622208 
1544,792 449303776 446910208 445957312 450013056 455449664 468689984 
1556,364 479439232 500806464 530340096 547270592 565146624 587497280 
1567,935 601463360 615810944 620614528 622860480 618052992 613909696 
1579,507 622622784 649179712 684289920 714451776 728853248 728786944 
1591,078 710683520 694154368 698343552 722400256 745307968 761754240 
1602,650 766105792 765451648 769130944 783800960 798610368 812184832 
1614,222 822814016 836285888 848317440 857444480 863234880 870102592 
1625,793 875787456 884382016 891061376 897331264 901662400 907307968 
1637,365 909853696 914797312 918092480 923489280 928153536 933746496 
1648,936 936402880 942271680 944322944 946317952 949287168 953411648 
1660,508 956430464 961169792 965118400 970287104 972563840 974775616 
1672,079 976839360 981039360 981983168 985118848 986107776 989258112 
1683,651 989849728 991772160 993007040 993285440 993994816 997331328 
1695,222 997236736 996352320 996529024 995325632 996578624 995974912 
1706,794 991465728 990739200 989841280 990366208 989211200 988954752 
1718,365 988203840 990352384 990419904 988845888 987578752 988606272 
1729,937 989347520 990642752 987108544 985110336 987704256 989246848 
1741,508 989515904 989410112 990327360 993372480 994769088 994499136 
1753,080 993242048 994148800 994212352 996123648 995643008 993077248 
1764,651 993111296 994646400 994790272 995018624 990590592 989981376 
1776,223 991341760 992305472 990413824 988321152 987396416 986892992 
1787,795 986908288 987700416 988059264 990688768 994481792 996958464 
1799,366 996601792 995930496 996827136 998977600 999811648 999350464 
1810,938 998177344 998914112 1000000000 999400576 997661760 997581888 
1822,509 998773568 999230656 997726976 997451904 995522240 996423040 
1834,081 997281728 996444224 994490496 994512384 996145088 996192384 
1845,652 994501888 994711104 995245696 996989504 996943616 995521984 
1857,224 993671872 993611840 993845696 993364608 991730176 990907840 
1868,795 990424192 992030208 992996032 992267968 990988416 990927936 
1880,367 990543232 989028096 986334784 985017344 984604032 983129408 
1891,938 981317952 980763840 982528768 987308800 991029760 992375488 
1903,510 992096576 992604544 993564288 993646976 992232768 991564480 
1915,081 991783360 992114816 990444928 989516608 987573760 987146880 
1926,653 987196800 986470976 985349632 985482560 986263552 986890048 
1938,224 985784320 984211456 982410496 982917248 984775296 985755968 
1949,796 985254464 984734016 985351360 987512640 988858560 988907264 
1961,368 989655360 992566848 994852288 994773760 993735488 993854848 
1972,939 994408960 994656000 993422144 992169408 991750848 992246912 
1984,511 992225472 991724160 991005888 991579008 991996352 992355072 
1996,082 992017792 991697152 991987200 992544128 992224576 991562624 
2007,654 991257856 991844928 992397824 992339712 991512000 991256768 
2019,225 992092352 993086912 992982272 992589184 992829376 994036352 
2030,797 994499968 993917056 993008832 993104384 993763456 993973376 
2042,368 992883904 991983552 991761472 992260864 992215808 991604992 
2053,939 990854336 990971840 991288576 991239232 990540928 990338304 
2065,510 990563328 991039104 990679424 989928576 989322880 989342272 
2077,081 989421632 989344576 989028608 989383616 990215168 991023168 
2088,652 991027648 990779008 990820672 991464320 991704384 991434624 
2100,223 990924544 990908992 991047296 991099136 990539456 990102208 
2111,793 990066368 990557696 990423680 989860928 989376128 989559232 
2123,364 989742784 989381760 988573440 988584960 989158784 989796160 
2134,935 989734528 989207360 989050688 989677440 989982464 989856960 
2146,506 989249088 989159296 989671232 990286400 990252608 990040896 
2158,077 989924608 990323328 990575488 990464960 989932224 989862976 
2169,647 990136512 990418304 990207808 989613056 988953792 988583232 
2181,218 988030016 987376640 986681344 986344384 986191104 986446912 
2192,789 986656512 987087808 987475648 988000640 988445440 988969024 
2204,360 989304448 989543232 989553856 989523328 989325440 989278016 
2215,931 989196544 989240192 989172544 989144832 988710144 988225472 
2227,501 987613696 987298112 987272768 987498496 987676800 988041152 
2239,072 988372864 988777344 988784576 988559104 988393344 988880512 
2250,643 989470208 989817664 989820864 989969472 990309824 990720448 
2262,214 990628992 990182464 989713152 989820160 989876224 989547776 
2273,785 988980480 988968064 989463872 989988928 990006080 990001920 
2285,355 990033920 990701312 991116096 990912448 990342848 989985856 
2296,926 989732864 989548928 988843392 988084992 987728704 988055488 
2308,497 988179648 987796864 986967104 986726208 987066816 987431744 
2320,068 987182208 987099712 987298112 988143360 988675008 988590528 
2331,639 988103232 988540288 989121152 989640512 989525056 989360000 
2343,209 989270528 988781888 988126848 989052800 989674048 990005120 
2354,780 990232640 990245440 989822464 989871616 990428288 990978496 
2366,351 990550464 990069504 989952320 990218688 990369024 990139968 
2377,922 989821120 990329216 991140736 991743168 991772416 991939840 
2389,493 992405312 992986240 993150784 992933248 992809152 993152896 
2401,063 993311488 992840320 992006272 991716032 992027072 992518528 
2412,634 992618496 992572224 992561728 993037312 993349824 993172544 
2424,205 993098432 993783744 994669184 995098496 994771776 994503552 
2435,776 994622208 994990848 994809600 994122688 993738432 993987136 
2447,347 994305088 994356160 993956608 993871616 994406976 995039040 
2458,917 994985792 994712000 994883200 995456768 995693952 995447552 
2470,488 994795584 994609344 994824896 994754048 993860160 992991616 
2482,059 992868352 993347648 993385024 992804288 992245056 992650240 
2493,630 993626048 994157568 993817280 993452096 993668352 994271936 
2505,201 994316992 993614208 992877824 992824576 993112704 992813120 
2516,771 991692480 990942976 991209728 991807808 991474304 990762304 
2528,342 990744768 991851072 992911616 992937472 992338112 992567680 
2539,913 993528832 994222592 993832768 993005120 992914880 993777664 
2551,484 994245696 993758848 992939200 992807936 993318080 993543296 
2563,055 992721664 991821568 991792320 992437952 992604416 992210816 
2574,625 991967680 992502080 993308096 993554432 993136000 992775744 
2586,196 992970496 993539904 993314496 992543040 992242432 992588928 
2597,767 992988736 992673920 991769856 991524416 992163648 992844096 
2609,338 992777344 992276288 992040000 992459648 992824000 992570944 
2620,909 991968448 991873216 992185792 992329088 991853056 991538368 
2632,479 991683456 992258688 992447488 991787648 991134080 991455616 
2644,050 992341568 992868864 992639680 992494272 992915968 993355712 
2655,621 993006848 992279232 991709824 991940736 992354496 992194816 
2667,192 991587392 991525632 992158656 992805248 992878848 992621440 
2678,763 992690368 993357632 993982528 993848576 993247040 993148032 
2690,333 993526528 993599168 992989760 992334272 991980672 991986112 
2701,904 991950656 991677632 991405248 991700928 992351936 992634048 
2713,475 992496512 992696320 993292800 993612288 993230976 992733376 
2725,046 992508480 992905472 993176512 992731264 992095232 991661696 
2736,617 991547392 991612672 991188288 990490752 990200320 990083776 
2748,188 989624000 989133120 988662784 988446720 988343552 987910784 
2759,758 987220864 986706304 986400128 986253312 985677504 984709632 
2771,329 983831040 983251904 982655936 981833216 980614720 979424064 
2782,900 978242496 976672128 974218752 971652928 969978240 969090944 
2794,471 968143936 966949376 966454720 967409152 969266688 971279936 
2806,042 972930624 974453376 975937408 977220352 977542784 977041152 
2817,612 976365312 975952704 975462016 974536896 973339776 972381440 
2829,183 971643968 970427712 968395520 966211136 964336704 962725376 
2840,754 961094912 958874816 956302400 954160896 952457856 950172352 
2852,325 946887744 943440320 940219328 937139008 933728960 929890880 
2863,896 925808192 922033856 918243264 914071104 909389696 904546368 
2875,466 899510784 894148800 888210496 882861952 880060224 880906240 
2887,037 885512768 893067392 902777984 913621440 923829056 932270144 
2898,608 938065280 941584256 943957568 945857920 946856256 946290432 
2910,179 944563264 942685184 941073600 939249408 936657280 933706432 
2921,750 931110080 929230400 927597248 925957824 925225664 926326976 
2933,320 928044224 929264128 929591232 929443904 929307008 929192064 
2944,891 928805568 927737600 926486720 925544448 925542208 927119232 
2956,462 929864128 933415808 937187776 940608064 943131328 944807872 
2968,033 946068032 947204736 948177472 949589824 952732608 958054784 
2979,604 964741568 971234688 975995968 978943616 980789184 981948032 
2991,174 982025344 981773632 981301568 980511168 979979264 979355776 
3002,745 978648576 978518848 978945408 979212416 979559232 980977152 
3014,316 983049216 984717760 985452416 985736640 986007168 986304448 
3025,887 986477248 985617664 983150720 979378688 975173632 972009216 
3037,458 971417984 974062336 978504320 982506560 985144448 986481408 
3049,028 985965568 984471360 982520896 979345088 976052352 975163072 
3060,599 976826880 978643328 978976128 978984320 981844736 986073216 
3072,170 989134656 990499200 990552896 990528640 991072128 991890240 
3083,741 992392704 992667840 992711616 992631104 993206016 993529344 
3095,312 992479424 990941696 990177024 991245696 993190784 994640000 
3106,882 995050560 995718464 997215680 997611712 996997056 996734528 
3118,453 996929344 997574144 998191552 998270208 998231296 998038400 
3130,024 998242048 998490432 998268416 997625728 996967488 997112896 
3141,595 997614976 997571840 997514432 997612608 997237248 996346048 
3153,166 996081792 996579392 997064576 997319744 997120576 996689984 
3164,736 996544896 996445440 996150976 995788736 995396480 995184128 
3176,307 995166400 994786880 994332480 993980800 993871872 993784000 
3187,878 993530816 993292288 992884544 992383040 991976256 991555200 
3199,449 991091776 990699392 990379328 989901184 989488384 989476480 
3211,020 989697280 989787008 989754112 989838592 989610752 989426816 
3222,590 989227840 988808192 988536704 988186816 987599488 987069824 
3234,161 987030848 986961728 986580096 986293056 986320256 985819328 
3245,732 985097664 984959424 984756160 984575104 984456832 984382528 
3257,303 984103872 983536384 983272064 983010624 982715520 982483392 
3268,874 982323776 982076864 981825792 981628800 981378304 981144192 
3280,444 980872192 980424256 980199872 979943616 979489152 978956544 
3292,015 978488384 978203328 978142976 977692032 977141696 976751936 
3303,586 976610880 976377408 975707712 974915072 974342976 974059072 
3315,157 973525632 972773120 972056896 971594496 971319424 970840384 
3326,728 970095168 969221312 968552768 968284608 967918464 967104512 
3338,298 966250816 965551168 964881088 964127168 963206400 962469120 
3349,869 962012160 961492864 960461504 959301376 958775232 958434496 
3361,440 957614464 956609792 955864768 955194944 954451392 953692480 
3373,011 952737280 951874944 951195456 950528320 949792192 949106688 
3384,582 948433920 947925312 947750400 947849792 947430848 946591616 
3396,152 946175296 946183296 946183872 945439040 944518464 944084480 
3407,723 944062208 943874880 943342080 942972992 942724864 942602176 
3419,294 942492544 941825472 941327232 941455296 941712192 941693888 
3430,865 941450112 941383808 941592320 941747456 941563904 941469632 
3442,436 941502656 942059008 942248704 941865984 942147264 942520768 
3454,006 942846208 943192320 943690624 944020736 943866368 944117824 
3465,577 944973312 945494016 945833216 945955072 946008000 946040640 
3477,148 946638016 947486208 947473280 947247232 947921984 948209088 
3488,719 948362624 949083648 949529280 949751808 950190528 950745472 
3500,290 951398592 951510144 951157824 951889600 952672832 952629952 
3511,860 953278656 953920192 954221504 954537024 955053056 955837376 
3523,431 955825984 956260608 956404928 956444800 957183616 958061888 
3535,002 958823168 959154560 959771264 960573568 961421376 961546944 
3546,573 960838848 961506432 962749760 962224128 962368896 963670656 
3558,144 964492288 964264896 964818944 966737600 966523648 964088640 
3569,714 965470400 967127936 967858944 968448640 968992768 969190720 
3581,285 969791104 971579648 973481984 971360064 970744064 973846976 
3592,856 975278976 974734720 975239872 976270400 976449920 977439360 
3604,427 979577408 980538240 979115584 980284800 981632000 982034624 
3615,998 984288704 984084800 982150016 983573312 986177088 989057024 
3627,568 989430848 983437888 986067328 987477056 988169408 988976384 
3639,139 988939904 989572992 990328832 993052032 993430784 989721856 
3650,710 986908032 990471104 993021760 990333248 991458496 992584064 
3662,281 992326784 992659136 994415680 995353216 991173760 992952960 
3673,852 996551808 989252416 990543424 991916224 992788864 993525568 
3685,422 995300608 995613504 992154560 990858432 991883840 993514048 
3696,993 993410752 994029056 992697664 991132032 992631232 993923008 
3708,564 994251584 991850816 989090624 990316224 992542464 992847424 
3720,135 992682752 991519616 991338176 990514240 990094912 992529472 
3731,706 992403392 992292736 989091968 988654912 990606336 993109376 
3743,276 992758784 986343488 990987008 991441344 986957248 985438464 
3754,847 988472960 989842880 988894400 987343872 989040832 989089216 
3766,418 988468736 989195840 986559616 986629696 987557824 988611072 
3777,989 988965504 986316608 987162048 986970432 985916992 986232128 
3789,560 986168192 985936832 987060480 987136768 985703680 988049984 
3801,130 984492480 982534656 986178752 983171712 982377536 983756800 
3812,701 985653504 986028928 982483008 985233920 982868096 979287744 
3824,272 982515456 982246400 981634880 982620032 982159104 982753664 
3835,843 983780800 982575360 980331008 980791936 980161984 980217664 
3847,414 981791936 983628032 986124672 978041856 976254592 978556928 
3858,984 980455424 981184128 980499264 978164800 980051392 981459968 
3870,555 977593920 979004992 977356096 978880832 980503744 977672896 
3882,126 977748160 979495360 976453312 978393792 979840832 976579264 
3893,697 976330240 978280896 979211456 977684544 977275904 976148608 
3905,268 974608768 975326592 976224960 976075200 976047680 976778688 
3916,838 975241536 974540992 974979776 975688320 974372864 974575744 
3928,409 975859008 975211392 973574208 973214272 973827584 973566656 
3939,980 973922752 972986432 971588032 972223232 971920960 970874176 
3951,551 970568896 970817536 970877120 970640128 970770176 970123776 
3963,122 969260544 969172608 969153664 968706368 968283136 967794944 
3974,692 967607104 967602368 967645632 967746752 967474816 967334656 
3986,263 967675584 967937792 967537152 967488448 967456960 967034240 
3997,834 966647616 966292928 
##END=
