##TITLE=Spectrum
##JCAMP-DX=5.00 $$ chemotion-converter-app (0.1.0)
##DATA TYPE=UV-VIS
##DATA CLASS=XYPOINTS
##ORIGIN=
##OWNER=
##FIRSTX=190
##LASTX=850
##MINX=190.0
##MAXX=850.0
##MINY=-0.0006
##MAXY=0.7896
##NPOINTS=661
##FIRSTY=0.7896
##XUNITS=NANOMETERS
##YUNITS=ABSORBANCE
##XYPOINTS=(XY..XY)
190, 0.7896
191, 0.2383
192, 0.3997
193, 0.4245
194, 0.4418
195, 0.3227
196, 0.4624
197, 0.4924
198, 0.3555
199, 0.2404
200, 0.3058
201, 0.3638
202, 0.2694
203, 0.3731
204, 0.3831
205, 0.2996
206, 0.4194
207, 0.2636
208, 0.3768
209, 0.3026
210, 0.3211
211, 0.4087
212, 0.3725
213, 0.2892
214, 0.3295
215, 0.4726
216, 0.5651
217, 0.6869
218, 0.7005
219, 0.6913
220, 0.6539
221, 0.6139
222, 0.5764
223, 0.5429
224, 0.5138
225, 0.4885
226, 0.4657
227, 0.4471
228, 0.4319
229, 0.4196
230, 0.4104
231, 0.4038
232, 0.4003
233, 0.3988
234, 0.4
235, 0.4031
236, 0.4081
237, 0.4144
238, 0.4214
239, 0.4289
240, 0.4363
241, 0.4434
242, 0.4496
243, 0.4543
244, 0.4571
245, 0.458
246, 0.4579
247, 0.4563
248, 0.4532
249, 0.4483
250, 0.4424
251, 0.4367
252, 0.4316
253, 0.428
254, 0.4249
255, 0.4231
256, 0.4209
257, 0.4186
258, 0.4158
259, 0.4126
260, 0.4086
261, 0.4042
262, 0.3996
263, 0.3937
264, 0.3872
265, 0.3813
266, 0.3755
267, 0.3695
268, 0.3653
269, 0.3613
270, 0.3567
271, 0.3506
272, 0.3449
273, 0.3412
274, 0.3379
275, 0.336
276, 0.3345
277, 0.3341
278, 0.3333
279, 0.3335
280, 0.3344
281, 0.3354
282, 0.3368
283, 0.3393
284, 0.3417
285, 0.3443
286, 0.3468
287, 0.3498
288, 0.3522
289, 0.3553
290, 0.3572
291, 0.3602
292, 0.3633
293, 0.3658
294, 0.369
295, 0.3718
296, 0.3752
297, 0.3789
298, 0.3821
299, 0.3863
300, 0.3895
301, 0.3929
302, 0.3968
303, 0.4003
304, 0.4036
305, 0.4069
306, 0.4099
307, 0.4129
308, 0.4145
309, 0.4163
310, 0.4181
311, 0.4193
312, 0.4193
313, 0.4192
314, 0.4186
315, 0.4171
316, 0.4166
317, 0.4149
318, 0.4134
319, 0.4118
320, 0.4104
321, 0.409
322, 0.4061
323, 0.403
324, 0.3992
325, 0.3964
326, 0.3944
327, 0.3897
328, 0.3877
329, 0.3847
330, 0.3813
331, 0.3786
332, 0.3751
333, 0.372
334, 0.3696
335, 0.3666
336, 0.3638
337, 0.3615
338, 0.3581
339, 0.3551
340, 0.352
341, 0.3478
342, 0.3451
343, 0.342
344, 0.3392
345, 0.336
346, 0.3338
347, 0.3313
348, 0.3296
349, 0.3277
350, 0.3258
351, 0.325
352, 0.3237
353, 0.3222
354, 0.3216
355, 0.3207
356, 0.32
357, 0.3201
358, 0.3192
359, 0.32
360, 0.3201
361, 0.3199
362, 0.3207
363, 0.3212
364, 0.3228
365, 0.3241
366, 0.3252
367, 0.3269
368, 0.3292
369, 0.3303
370, 0.3314
371, 0.3338
372, 0.3356
373, 0.3376
374, 0.3394
375, 0.3408
376, 0.3431
377, 0.3445
378, 0.3462
379, 0.3479
380, 0.3489
381, 0.3503
382, 0.3513
383, 0.3524
384, 0.3535
385, 0.3546
386, 0.3556
387, 0.3563
388, 0.3567
389, 0.3571
390, 0.3571
391, 0.3572
392, 0.3566
393, 0.3558
394, 0.3543
395, 0.3526
396, 0.3507
397, 0.3478
398, 0.3448
399, 0.3413
400, 0.3384
401, 0.3339
402, 0.3298
403, 0.3254
404, 0.3208
405, 0.3158
406, 0.3109
407, 0.3056
408, 0.3005
409, 0.2952
410, 0.2895
411, 0.284
412, 0.2779
413, 0.2715
414, 0.2651
415, 0.2583
416, 0.2508
417, 0.2431
418, 0.2349
419, 0.2264
420, 0.2175
421, 0.2081
422, 0.1984
423, 0.1885
424, 0.1784
425, 0.1688
426, 0.159
427, 0.1498
428, 0.1409
429, 0.1324
430, 0.1242
431, 0.1165
432, 0.1092
433, 0.1025
434, 0.0958
435, 0.0896
436, 0.0834
437, 0.0774
438, 0.0719
439, 0.0663
440, 0.061
441, 0.056
442, 0.0507
443, 0.0455
444, 0.0408
445, 0.0361
446, 0.0318
447, 0.0275
448, 0.0237
449, 0.0202
450, 0.0169
451, 0.0141
452, 0.0118
453, 0.0098
454, 0.0082
455, 0.0068
456, 0.0056
457, 0.0046
458, 0.0039
459, 0.0034
460, 0.0029
461, 0.0025
462, 0.0022
463, 0.0018
464, 0.0016
465, 0.0016
466, 0.0013
467, 0.0012
468, 0.0011
469, 0.0009
470, 0.001
471, 0.0009
472, 0.0008
473, 0.0007
474, 0.0007
475, 0.0007
476, 0.0006
477, 0.0006
478, 0.0006
479, 0.0006
480, 0.0005
481, 0.0004
482, 0.0005
483, 0.0005
484, 0.0004
485, 0.0004
486, 0.0004
487, 0.0004
488, 0.0004
489, 0.0004
490, 0.0003
491, 0.0004
492, 0.0003
493, 0.0002
494, 0.0003
495, 0.0002
496, 0.0003
497, 0.0002
498, 0.0002
499, 0.0002
500, 0.0002
501, 0.0002
502, 0.0001
503, 0.0002
504, 0.0002
505, 0.0001
506, 0.0001
507, 0.0001
508, 0.0001
509, 0.0001
510, 0.0001
511, 0.0001
512, 0.0001
513, 0.0001
514, 0.0001
515, 0
516, 0
517, 0.0001
518, 0
519, 0
520, 0
521, 0
522, 0
523, 0
524, 0
525, 0
526, 0
527, -0.0001
528, -0.0001
529, -0.0001
530, -0.0001
531, -0.0001
532, -0.0001
533, -0.0001
534, -0.0001
535, -0.0002
536, -0.0002
537, -0.0002
538, -0.0002
539, -0.0002
540, -0.0002
541, -0.0002
542, -0.0003
543, -0.0002
544, -0.0003
545, -0.0003
546, -0.0003
547, -0.0003
548, -0.0003
549, -0.0003
550, -0.0003
551, -0.0003
552, -0.0003
553, -0.0003
554, -0.0003
555, -0.0003
556, -0.0003
557, -0.0003
558, -0.0004
559, -0.0004
560, -0.0003
561, -0.0003
562, -0.0004
563, -0.0004
564, -0.0004
565, -0.0004
566, -0.0004
567, -0.0004
568, -0.0004
569, -0.0004
570, -0.0004
571, -0.0004
572, -0.0004
573, -0.0004
574, -0.0004
575, -0.0004
576, -0.0004
577, -0.0004
578, -0.0004
579, -0.0004
580, -0.0004
581, -0.0004
582, -0.0004
583, -0.0004
584, -0.0004
585, -0.0004
586, -0.0004
587, -0.0004
588, -0.0004
589, -0.0004
590, -0.0004
591, -0.0004
592, -0.0004
593, -0.0004
594, -0.0004
595, -0.0004
596, -0.0004
597, -0.0005
598, -0.0004
599, -0.0005
600, -0.0004
601, -0.0005
602, -0.0004
603, -0.0004
604, -0.0004
605, -0.0004
606, -0.0005
607, -0.0004
608, -0.0004
609, -0.0005
610, -0.0005
611, -0.0004
612, -0.0005
613, -0.0005
614, -0.0005
615, -0.0005
616, -0.0005
617, -0.0005
618, -0.0005
619, -0.0005
620, -0.0005
621, -0.0005
622, -0.0004
623, -0.0004
624, -0.0005
625, -0.0005
626, -0.0005
627, -0.0005
628, -0.0004
629, -0.0005
630, -0.0004
631, -0.0005
632, -0.0005
633, -0.0005
634, -0.0004
635, -0.0004
636, -0.0004
637, -0.0005
638, -0.0005
639, -0.0004
640, -0.0005
641, -0.0005
642, -0.0004
643, -0.0004
644, -0.0005
645, -0.0005
646, -0.0005
647, -0.0004
648, -0.0005
649, -0.0005
650, -0.0005
651, -0.0005
652, -0.0004
653, -0.0005
654, -0.0005
655, -0.0005
656, -0.0005
657, -0.0005
658, -0.0004
659, -0.0005
660, -0.0005
661, -0.0005
662, -0.0005
663, -0.0005
664, -0.0005
665, -0.0005
666, -0.0005
667, -0.0005
668, -0.0005
669, -0.0005
670, -0.0005
671, -0.0004
672, -0.0005
673, -0.0005
674, -0.0005
675, -0.0005
676, -0.0005
677, -0.0005
678, -0.0005
679, -0.0005
680, -0.0005
681, -0.0005
682, -0.0005
683, -0.0005
684, -0.0005
685, -0.0005
686, -0.0005
687, -0.0005
688, -0.0006
689, -0.0006
690, -0.0005
691, -0.0005
692, -0.0005
693, -0.0005
694, -0.0005
695, -0.0006
696, -0.0005
697, -0.0006
698, -0.0005
699, -0.0006
700, -0.0005
701, -0.0006
702, -0.0005
703, -0.0005
704, -0.0005
705, -0.0005
706, -0.0005
707, -0.0005
708, -0.0005
709, -0.0005
710, -0.0005
711, -0.0005
712, -0.0006
713, -0.0005
714, -0.0005
715, -0.0005
716, -0.0005
717, -0.0005
718, -0.0005
719, -0.0005
720, -0.0006
721, -0.0006
722, -0.0005
723, -0.0006
724, -0.0005
725, -0.0005
726, -0.0006
727, -0.0005
728, -0.0005
729, -0.0006
730, -0.0006
731, -0.0005
732, -0.0006
733, -0.0006
734, -0.0005
735, -0.0005
736, -0.0005
737, -0.0006
738, -0.0005
739, -0.0005
740, -0.0005
741, -0.0005
742, -0.0006
743, -0.0005
744, -0.0005
745, -0.0006
746, -0.0005
747, -0.0006
748, -0.0006
749, -0.0005
750, -0.0005
751, -0.0006
752, -0.0006
753, -0.0006
754, -0.0006
755, -0.0006
756, -0.0006
757, -0.0005
758, -0.0006
759, -0.0006
760, -0.0006
761, -0.0006
762, -0.0005
763, -0.0006
764, -0.0006
765, -0.0005
766, -0.0005
767, -0.0005
768, -0.0005
769, -0.0006
770, -0.0006
771, -0.0006
772, -0.0006
773, -0.0005
774, -0.0006
775, -0.0006
776, -0.0005
777, -0.0006
778, -0.0005
779, -0.0006
780, -0.0005
781, -0.0006
782, -0.0005
783, -0.0005
784, -0.0006
785, -0.0006
786, -0.0006
787, -0.0006
788, -0.0005
789, -0.0006
790, -0.0006
791, -0.0005
792, -0.0005
793, -0.0005
794, -0.0005
795, -0.0006
796, -0.0005
797, -0.0005
798, -0.0005
799, -0.0005
800, -0.0006
801, -0.0006
802, -0.0005
803, -0.0006
804, -0.0006
805, -0.0006
806, -0.0006
807, -0.0005
808, -0.0006
809, -0.0005
810, -0.0005
811, -0.0005
812, -0.0005
813, -0.0005
814, -0.0005
815, -0.0005
816, -0.0006
817, -0.0005
818, -0.0005
819, -0.0005
820, -0.0005
821, -0.0005
822, -0.0005
823, -0.0005
824, -0.0005
825, -0.0005
826, -0.0005
827, -0.0005
828, -0.0005
829, -0.0005
830, -0.0005
831, -0.0005
832, -0.0005
833, -0.0005
834, -0.0005
835, -0.0005
836, -0.0005
837, -0.0005
838, -0.0005
839, -0.0005
840, -0.0005
841, -0.0005
842, -0.0005
843, -0.0005
844, -0.0005
845, -0.0005
846, -0.0004
847, -0.0005
848, -0.0005
849, -0.0005
850, -0.0005
##END=$$ End of the data block
